=== T20 Phase 1: Z₂ LGT on 2D Square Lattice ===
Lattice size: 16 x 16
Thermalization: 10000 sweeps
Measurement: 100000 sweeps (every 10 )
β values: 18 points

β = 0.10 ... ⟨P⟩ = 0.1004 ± 0.0006
β = 0.20 ... ⟨P⟩ = 0.1973 ± 0.0007
β = 0.30 ... ⟨P⟩ = 0.2917 ± 0.0006
β = 0.35 ... ⟨P⟩ = 0.3359 ± 0.0006
β = 0.38 ... ⟨P⟩ = 0.3631 ± 0.0006
β = 0.40 ... ⟨P⟩ = 0.3805 ± 0.0006
β = 0.42 ... ⟨P⟩ = 0.3969 ± 0.0006
β = 0.44 ... ⟨P⟩ = 0.4134 ± 0.0006
β = 0.45 ... ⟨P⟩ = 0.4224 ± 0.0006
β = 0.46 ... ⟨P⟩ = 0.4306 ± 0.0005
β = 0.48 ... ⟨P⟩ = 0.4460 ± 0.0005
β = 0.50 ... ⟨P⟩ = 0.4620 ± 0.0005
β = 0.55 ... ⟨P⟩ = 0.5005 ± 0.0005
β = 0.60 ... ⟨P⟩ = 0.5374 ± 0.0005
β = 0.80 ... ⟨P⟩ = 0.6642 ± 0.0004
β = 1.00 ... ⟨P⟩ = 0.7616 ± 0.0004
β = 1.50 ... ⟨P⟩ = 0.9052 ± 0.0003
β = 2.00 ... ⟨P⟩ = 0.9640 ± 0.0002

=== Results ===
β		⟨P⟩		Error
————————————————————————————————————————
0.10		0.1004		0.0006
0.20		0.1973		0.0007
0.30		0.2917		0.0006
0.35		0.3359		0.0006
0.38		0.3631		0.0006
0.40		0.3805		0.0006
0.42		0.3969		0.0006
0.44		0.4134		0.0006
0.45		0.4224		0.0006
0.46		0.4306		0.0005
0.48		0.4460		0.0005
0.50		0.4620		0.0005
0.55		0.5005		0.0005
0.60		0.5374		0.0005
0.80		0.6642		0.0004
1.00		0.7616		0.0004
1.50		0.9052		0.0003
2.00		0.9640		0.0002

Results saved to /Users/sage/.openclaw/workspace/code/timesarrow/numerics/output/t20-phase1-square-lattice.json
